freq,psd_x,psd_y,psd_z,psd_xyz
0.0,8.810e+01,8.715e+01,8.686e+02,1.044e+03
1.6,3.104e+02,3.662e+02,9.967e+02,1.673e+03
3.1,3.685e+02,4.447e+02,6.611e+02,1.474e+03
4.7,3.963e+02,4.604e+02,9.857e+02,1.842e+03
6.2,3.996e+02,4.822e+02,2.106e+03,2.988e+03
7.8,4.096e+02,4.495e+02,2.789e+03,3.648e+03
9.4,3.949e+02,4.565e+02,3.608e+03,4.460e+03
10.9,4.269e+02,4.922e+02,4.554e+03,5.473e+03
12.5,4.562e+02,5.288e+02,5.948e+03,6.933e+03
14.0,4.535e+02,4.899e+02,7.505e+03,8.449e+03
15.6,4.236e+02,4.719e+02,9.869e+03,1.077e+04
17.2,4.205e+02,5.322e+02,1.278e+04,1.373e+04
18.7,4.455e+02,5.987e+02,1.541e+04,1.645e+04
20.3,4.847e+02,6.942e+02,1.851e+04,1.969e+04
21.8,5.104e+02,6.787e+02,2.247e+04,2.366e+04
23.4,5.453e+02,7.091e+02,2.729e+04,2.855e+04
25.0,5.926e+02,7.894e+02,3.294e+04,3.432e+04
26.5,5.866e+02,7.570e+02,3.922e+04,4.056e+04
28.1,5.645e+02,6.171e+02,4.543e+04,4.661e+04
29.6,5.275e+02,5.684e+02,5.453e+04,5.563e+04
31.2,5.292e+02,5.482e+02,6.888e+04,6.996e+04
32.8,5.932e+02,5.803e+02,8.756e+04,8.873e+04
34.3,7.737e+02,6.110e+02,1.180e+05,1.194e+05
35.9,9.189e+02,6.722e+02,1.649e+05,1.664e+05
37.4,1.323e+03,7.006e+02,2.452e+05,2.472e+05
39.0,2.652e+03,8.688e+02,3.816e+05,3.851e+05
40.6,6.182e+03,1.251e+03,6.757e+05,6.831e+05
42.1,1.434e+04,2.903e+03,1.389e+06,1.407e+06
43.7,3.048e+04,5.948e+03,2.249e+06,2.285e+06
45.2,4.406e+04,8.264e+03,2.508e+06,2.560e+06
46.8,4.222e+04,8.790e+03,2.045e+06,2.096e+06
48.4,3.616e+04,6.885e+03,1.395e+06,1.438e+06
49.9,3.247e+04,5.597e+03,9.530e+05,9.911e+05
51.5,3.425e+04,4.952e+03,7.539e+05,7.931e+05
53.0,3.435e+04,4.484e+03,6.778e+05,7.167e+05
54.6,3.002e+04,5.263e+03,6.313e+05,6.666e+05
56.2,2.432e+04,5.927e+03,5.751e+05,6.054e+05
57.7,1.589e+04,8.359e+03,5.182e+05,5.425e+05
59.3,1.481e+04,1.315e+04,4.878e+05,5.158e+05
60.8,1.493e+04,1.561e+04,4.643e+05,4.948e+05
62.4,1.547e+04,1.598e+04,4.210e+05,4.525e+05
64.0,1.686e+04,1.575e+04,3.774e+05,4.101e+05
65.5,1.653e+04,1.559e+04,3.380e+05,3.701e+05
67.1,1.267e+04,1.462e+04,2.651e+05,2.924e+05
68.7,8.225e+03,1.199e+04,1.868e+05,2.070e+05
70.2,7.670e+03,8.854e+03,1.374e+05,1.539e+05
71.8,9.625e+03,6.777e+03,1.140e+05,1.304e+05
73.3,1.037e+04,5.786e+03,9.798e+04,1.141e+05
74.9,8.431e+03,5.842e+03,9.025e+04,1.045e+05
76.5,6.782e+03,6.954e+03,8.871e+04,1.024e+05
78.0,6.599e+03,7.039e+03,7.948e+04,9.312e+04
79.6,6.933e+03,5.724e+03,6.724e+04,7.989e+04
81.1,7.706e+03,4.702e+03,5.793e+04,7.034e+04
82.7,8.663e+03,4.988e+03,5.264e+04,6.629e+04
84.3,8.520e+03,7.118e+03,5.548e+04,7.112e+04
85.8,8.050e+03,9.907e+03,5.859e+04,7.654e+04
87.4,7.268e+03,1.331e+04,5.496e+04,7.553e+04
88.9,6.411e+03,1.700e+04,5.148e+04,7.489e+04
90.5,5.997e+03,2.076e+04,4.964e+04,7.639e+04
92.1,6.437e+03,2.575e+04,4.842e+04,8.061e+04
93.6,7.164e+03,3.278e+04,4.971e+04,8.965e+04
95.2,7.390e+03,4.459e+04,5.301e+04,1.050e+05
96.7,8.373e+03,5.794e+04,5.772e+04,1.240e+05
98.3,1.075e+04,6.719e+04,5.709e+04,1.350e+05
99.9,1.194e+04,6.976e+04,5.388e+04,1.356e+05
101.4,1.326e+04,6.940e+04,5.095e+04,1.336e+05
103.0,1.274e+04,5.952e+04,4.489e+04,1.172e+05
104.5,1.012e+04,4.562e+04,3.917e+04,9.490e+04
106.1,8.291e+03,4.076e+04,3.730e+04,8.635e+04
107.7,6.765e+03,4.506e+04,4.006e+04,9.188e+04
109.2,5.856e+03,5.518e+04,4.175e+04,1.028e+05
110.8,5.885e+03,6.534e+04,4.229e+04,1.135e+05
112.3,5.734e+03,7.698e+04,4.073e+04,1.234e+05
113.9,5.495e+03,8.722e+04,3.530e+04,1.280e+05
115.5,6.099e+03,9.550e+04,2.908e+04,1.307e+05
117.0,7.601e+03,1.121e+05,3.020e+04,1.499e+05
118.6,8.245e+03,1.219e+05,3.005e+04,1.602e+05
120.1,8.100e+03,1.134e+05,2.421e+04,1.457e+05
121.7,7.689e+03,9.763e+04,2.092e+04,1.262e+05
123.3,6.205e+03,7.046e+04,2.235e+04,9.902e+04
124.8,4.657e+03,5.016e+04,2.570e+04,8.051e+04
126.4,3.897e+03,4.312e+04,2.978e+04,7.680e+04
127.9,3.618e+03,4.121e+04,3.367e+04,7.850e+04
129.5,2.977e+03,4.255e+04,3.581e+04,8.134e+04
131.1,2.725e+03,4.441e+04,3.702e+04,8.416e+04
132.6,2.577e+03,4.170e+04,3.171e+04,7.598e+04
134.2,1.689e+03,3.352e+04,2.130e+04,5.651e+04
135.7,1.143e+03,2.834e+04,1.860e+04,4.809e+04
137.3,1.418e+03,2.492e+04,1.571e+04,4.204e+04
138.9,2.390e+03,2.210e+04,1.351e+04,3.800e+04
140.4,3.678e+03,1.935e+04,1.244e+04,3.546e+04
142.0,4.773e+03,1.611e+04,1.111e+04,3.199e+04
143.5,5.483e+03,1.412e+04,1.082e+04,3.042e+04
145.1,5.736e+03,1.354e+04,1.185e+04,3.112e+04
146.7,5.220e+03,1.294e+04,1.181e+04,2.997e+04
148.2,4.551e+03,1.248e+04,1.058e+04,2.762e+04
149.8,3.850e+03,1.206e+04,1.088e+04,2.679e+04
151.3,3.346e+03,1.188e+04,1.112e+04,2.634e+04
152.9,2.867e+03,1.075e+04,9.814e+03,2.343e+04
154.5,2.822e+03,8.531e+03,7.758e+03,1.911e+04
156.0,2.837e+03,6.100e+03,5.979e+03,1.492e+04
157.6,2.680e+03,4.390e+03,4.253e+03,1.132e+04
159.1,3.094e+03,3.953e+03,3.385e+03,1.043e+04
160.7,3.732e+03,5.200e+03,3.909e+03,1.284e+04
162.3,3.687e+03,4.459e+03,3.453e+03,1.160e+04
163.8,3.464e+03,3.314e+03,2.598e+03,9.376e+03
165.4,3.396e+03,3.503e+03,2.110e+03,9.009e+03
166.9,4.036e+03,4.010e+03,1.945e+03,9.991e+03
168.5,5.732e+03,3.648e+03,2.837e+03,1.222e+04
170.1,6.351e+03,2.989e+03,3.926e+03,1.327e+04
171.6,6.872e+03,2.974e+03,5.032e+03,1.488e+04
173.2,8.133e+03,3.789e+03,6.747e+03,1.867e+04
174.7,1.085e+04,4.604e+03,8.493e+03,2.394e+04
176.3,1.456e+04,4.986e+03,1.010e+04,2.965e+04
177.9,1.883e+04,5.520e+03,1.183e+04,3.618e+04
179.4,2.344e+04,5.936e+03,1.437e+04,4.374e+04
181.0,2.636e+04,6.442e+03,1.508e+04,4.788e+04
182.5,2.900e+04,7.241e+03,1.591e+04,5.215e+04
184.1,3.136e+04,7.686e+03,1.758e+04,5.663e+04
185.7,3.447e+04,8.831e+03,1.809e+04,6.139e+04
187.2,3.852e+04,1.020e+04,1.915e+04,6.788e+04
188.8,4.241e+04,1.188e+04,1.979e+04,7.408e+04
190.4,4.557e+04,1.302e+04,2.048e+04,7.907e+04
191.9,4.694e+04,1.296e+04,2.078e+04,8.068e+04
193.5,4.765e+04,1.167e+04,2.024e+04,7.956e+04
195.0,4.961e+04,1.051e+04,2.042e+04,8.055e+04
196.6,5.398e+04,9.008e+03,2.134e+04,8.433e+04
198.2,5.837e+04,6.815e+03,2.230e+04,8.749e+04
199.7,6.239e+04,5.609e+03,2.352e+04,9.152e+04
