freq,psd_x,psd_y,psd_z,psd_xyz
0.0,6.414e+01,8.103e+01,8.057e+02,9.509e+02
1.5,2.705e+02,2.794e+02,7.942e+02,1.344e+03
3.0,3.055e+02,3.261e+02,4.649e+02,1.097e+03
4.5,3.208e+02,3.335e+02,7.762e+02,1.431e+03
6.0,3.430e+02,3.382e+02,1.602e+03,2.283e+03
7.6,3.526e+02,3.750e+02,2.358e+03,3.086e+03
9.1,3.614e+02,3.507e+02,3.068e+03,3.780e+03
10.6,3.444e+02,3.516e+02,3.961e+03,4.657e+03
12.1,3.330e+02,3.996e+02,5.455e+03,6.188e+03
13.6,3.442e+02,3.607e+02,6.872e+03,7.577e+03
15.1,3.695e+02,3.550e+02,9.294e+03,1.002e+04
16.6,4.099e+02,3.927e+02,1.226e+04,1.306e+04
18.1,4.168e+02,4.002e+02,1.518e+04,1.600e+04
19.6,4.163e+02,4.334e+02,1.845e+04,1.930e+04
21.2,3.619e+02,4.364e+02,2.321e+04,2.401e+04
22.7,3.851e+02,4.102e+02,2.899e+04,2.979e+04
24.2,4.635e+02,4.813e+02,3.806e+04,3.900e+04
25.7,5.172e+02,4.906e+02,4.835e+04,4.936e+04
27.2,5.202e+02,5.215e+02,5.201e+04,5.305e+04
28.7,5.645e+02,5.198e+02,5.171e+04,5.279e+04
30.2,6.401e+02,5.287e+02,6.060e+04,6.177e+04
31.7,6.324e+02,5.579e+02,7.719e+04,7.838e+04
33.2,6.736e+02,5.914e+02,9.910e+04,1.004e+05
34.8,8.074e+02,6.717e+02,1.337e+05,1.352e+05
36.3,1.179e+03,8.384e+02,1.975e+05,1.995e+05
37.8,1.545e+03,1.141e+03,2.963e+05,2.990e+05
39.3,1.961e+03,1.634e+03,4.600e+05,4.636e+05
40.8,2.889e+03,2.756e+03,7.410e+05,7.466e+05
42.3,5.801e+03,4.128e+03,1.262e+06,1.272e+06
43.8,9.340e+03,5.891e+03,1.924e+06,1.939e+06
45.3,1.217e+04,7.352e+03,2.086e+06,2.105e+06
46.9,1.440e+04,7.525e+03,1.667e+06,1.688e+06
48.4,1.565e+04,7.548e+03,1.234e+06,1.257e+06
49.9,1.704e+04,7.121e+03,9.487e+05,9.728e+05
51.4,2.023e+04,6.399e+03,7.828e+05,8.094e+05
52.9,2.350e+04,5.158e+03,7.244e+05,7.531e+05
54.4,2.252e+04,4.381e+03,6.297e+05,6.566e+05
55.9,1.462e+04,5.973e+03,5.818e+05,6.024e+05
57.4,1.102e+04,1.290e+04,5.782e+05,6.021e+05
58.9,1.203e+04,2.071e+04,6.328e+05,6.655e+05
60.5,1.164e+04,2.550e+04,6.585e+05,6.957e+05
62.0,8.703e+03,3.095e+04,6.096e+05,6.492e+05
63.5,4.837e+03,3.664e+04,5.777e+05,6.192e+05
65.0,3.422e+03,3.179e+04,5.286e+05,5.638e+05
66.5,1.410e+04,2.115e+04,4.074e+05,4.427e+05
68.0,2.860e+04,1.493e+04,3.121e+05,3.556e+05
69.5,2.781e+04,1.826e+04,2.858e+05,3.319e+05
71.0,2.580e+04,1.976e+04,2.291e+05,2.747e+05
72.5,2.160e+04,1.820e+04,1.519e+05,1.917e+05
74.1,1.122e+04,1.762e+04,1.116e+05,1.404e+05
75.6,6.048e+03,1.488e+04,8.742e+04,1.083e+05
77.1,5.527e+03,1.043e+04,6.275e+04,7.871e+04
78.6,6.296e+03,8.317e+03,4.825e+04,6.286e+04
80.1,7.537e+03,8.130e+03,4.444e+04,6.011e+04
81.6,7.906e+03,8.590e+03,4.586e+04,6.235e+04
83.1,7.329e+03,8.579e+03,4.868e+04,6.459e+04
84.6,7.790e+03,8.951e+03,5.575e+04,7.249e+04
86.1,7.940e+03,9.454e+03,5.661e+04,7.400e+04
87.7,7.423e+03,1.062e+04,5.106e+04,6.910e+04
89.2,6.260e+03,1.276e+04,4.640e+04,6.542e+04
90.7,5.307e+03,1.760e+04,4.426e+04,6.717e+04
92.2,4.571e+03,2.497e+04,4.559e+04,7.512e+04
93.7,3.253e+03,3.561e+04,5.043e+04,8.929e+04
95.2,3.404e+03,5.143e+04,5.762e+04,1.124e+05
96.7,4.644e+03,7.657e+04,6.564e+04,1.469e+05
98.2,7.235e+03,1.051e+05,7.294e+04,1.852e+05
99.7,1.030e+04,1.355e+05,7.575e+04,2.216e+05
101.3,1.399e+04,1.673e+05,7.551e+04,2.568e+05
102.8,1.497e+04,1.785e+05,6.555e+04,2.590e+05
104.3,1.345e+04,1.619e+05,5.467e+04,2.300e+05
105.8,1.572e+04,1.656e+05,4.946e+04,2.308e+05
107.3,1.971e+04,1.811e+05,3.987e+04,2.407e+05
108.8,2.288e+04,1.753e+05,2.882e+04,2.270e+05
110.3,2.286e+04,1.445e+05,1.737e+04,1.847e+05
111.8,1.787e+04,1.111e+05,1.152e+04,1.405e+05
113.3,1.358e+04,8.822e+04,9.514e+03,1.113e+05
114.9,1.011e+04,7.032e+04,1.069e+04,9.112e+04
116.4,8.837e+03,6.826e+04,1.792e+04,9.502e+04
117.9,8.361e+03,7.554e+04,2.646e+04,1.104e+05
119.4,7.933e+03,7.850e+04,2.999e+04,1.164e+05
120.9,8.430e+03,7.827e+04,2.635e+04,1.131e+05
122.4,9.271e+03,6.470e+04,2.348e+04,9.745e+04
123.9,9.789e+03,4.109e+04,2.697e+04,7.785e+04
125.4,1.034e+04,2.879e+04,3.123e+04,7.036e+04
127.0,9.195e+03,2.110e+04,3.240e+04,6.270e+04
128.5,5.766e+03,1.568e+04,3.015e+04,5.159e+04
130.0,3.436e+03,1.417e+04,2.898e+04,4.659e+04
131.5,3.171e+03,1.515e+04,2.805e+04,4.638e+04
133.0,3.000e+03,1.424e+04,1.865e+04,3.589e+04
134.5,3.119e+03,1.241e+04,7.632e+03,2.316e+04
136.0,3.501e+03,1.242e+04,5.779e+03,2.170e+04
137.5,4.127e+03,1.329e+04,6.523e+03,2.394e+04
139.0,5.458e+03,1.450e+04,7.235e+03,2.720e+04
140.6,6.773e+03,1.467e+04,8.354e+03,2.979e+04
142.1,7.141e+03,1.537e+04,1.044e+04,3.296e+04
143.6,6.208e+03,1.545e+04,1.159e+04,3.325e+04
145.1,4.444e+03,1.578e+04,1.167e+04,3.189e+04
146.6,2.690e+03,1.759e+04,1.228e+04,3.256e+04
148.1,2.119e+03,1.776e+04,1.271e+04,3.259e+04
149.6,2.787e+03,1.699e+04,1.250e+04,3.228e+04
151.1,3.471e+03,1.988e+04,1.329e+04,3.664e+04
152.6,4.326e+03,2.299e+04,1.322e+04,4.054e+04
154.2,5.498e+03,2.568e+04,1.390e+04,4.507e+04
155.7,6.459e+03,2.268e+04,1.193e+04,4.107e+04
157.2,4.807e+03,7.848e+03,4.297e+03,1.695e+04
158.7,3.403e+03,3.071e+03,3.017e+03,9.491e+03
160.2,3.015e+03,2.568e+03,3.231e+03,8.813e+03
161.7,2.743e+03,2.055e+03,3.766e+03,8.564e+03
163.2,2.755e+03,2.443e+03,4.374e+03,9.572e+03
164.7,3.249e+03,4.039e+03,4.763e+03,1.205e+04
166.2,4.330e+03,5.947e+03,5.770e+03,1.605e+04
167.8,6.745e+03,5.789e+03,6.690e+03,1.922e+04
169.3,1.090e+04,6.006e+03,8.507e+03,2.541e+04
170.8,1.404e+04,6.965e+03,1.145e+04,3.246e+04
172.3,1.449e+04,6.791e+03,1.175e+04,3.303e+04
173.8,1.499e+04,6.360e+03,1.129e+04,3.264e+04
175.3,1.647e+04,5.669e+03,1.075e+04,3.288e+04
176.8,2.003e+04,4.889e+03,9.328e+03,3.425e+04
178.3,2.569e+04,5.197e+03,7.145e+03,3.803e+04
179.8,3.401e+04,6.346e+03,5.607e+03,4.597e+04
181.4,4.250e+04,7.160e+03,5.902e+03,5.556e+04
182.9,5.383e+04,7.328e+03,8.314e+03,6.947e+04
184.4,6.586e+04,8.769e+03,1.266e+04,8.728e+04
185.9,7.470e+04,9.881e+03,1.795e+04,1.025e+05
187.4,7.959e+04,1.026e+04,2.252e+04,1.124e+05
188.9,7.469e+04,1.035e+04,2.612e+04,1.112e+05
190.4,6.853e+04,1.041e+04,2.704e+04,1.060e+05
191.9,6.318e+04,9.963e+03,2.762e+04,1.008e+05
193.4,5.889e+04,1.007e+04,2.723e+04,9.619e+04
195.0,5.617e+04,1.017e+04,2.615e+04,9.248e+04
196.5,5.442e+04,9.049e+03,2.592e+04,8.939e+04
198.0,5.679e+04,8.659e+03,2.725e+04,9.270e+04
199.5,6.038e+04,8.863e+03,2.788e+04,9.712e+04
