freq,psd_x,psd_y,psd_z,psd_xyz
0.0,2.564e+02,5.492e+00,9.526e+00,2.715e+02
1.5,1.605e+02,2.099e+01,4.432e+01,2.258e+02
3.1,3.021e+01,2.207e+01,5.436e+01,1.066e+02
4.6,3.560e+02,2.138e+01,4.901e+01,4.264e+02
6.2,1.289e+03,2.392e+01,5.418e+01,1.367e+03
7.7,2.142e+03,2.159e+01,5.676e+01,2.220e+03
9.3,2.715e+03,2.232e+01,5.810e+01,2.796e+03
10.8,3.665e+03,2.268e+01,5.504e+01,3.743e+03
12.4,4.955e+03,2.209e+01,5.594e+01,5.033e+03
13.9,6.465e+03,2.289e+01,5.948e+01,6.548e+03
15.5,8.145e+03,2.404e+01,5.882e+01,8.228e+03
17.0,9.618e+03,2.442e+01,5.848e+01,9.700e+03
18.6,1.150e+04,2.601e+01,6.288e+01,1.159e+04
20.1,1.415e+04,2.404e+01,6.713e+01,1.424e+04
21.7,1.708e+04,2.434e+01,5.867e+01,1.716e+04
23.2,1.985e+04,3.172e+01,6.381e+01,1.995e+04
24.8,2.253e+04,3.123e+01,7.545e+01,2.264e+04
26.3,2.668e+04,2.613e+01,7.220e+01,2.678e+04
27.9,3.181e+04,2.598e+01,8.251e+01,3.192e+04
29.4,3.647e+04,3.143e+01,7.751e+01,3.658e+04
31.0,4.332e+04,4.084e+01,7.212e+01,4.344e+04
32.5,5.103e+04,3.963e+01,8.044e+01,5.115e+04
34.1,5.666e+04,3.650e+01,8.667e+01,5.679e+04
35.6,6.231e+04,3.269e+01,9.902e+01,6.244e+04
37.2,7.069e+04,2.667e+01,1.022e+02,7.081e+04
38.7,8.457e+04,2.508e+01,1.050e+02,8.470e+04
40.3,9.582e+04,2.452e+01,1.179e+02,9.597e+04
41.8,1.024e+05,3.324e+01,1.381e+02,1.026e+05
43.4,1.220e+05,4.262e+01,1.486e+02,1.222e+05
44.9,1.596e+05,4.920e+01,1.425e+02,1.598e+05
46.5,1.852e+05,7.838e+01,1.677e+02,1.854e+05
48.0,1.944e+05,1.248e+02,4.291e+02,1.950e+05
49.6,2.047e+05,1.676e+02,9.636e+02,2.058e+05
51.1,2.127e+05,1.806e+02,1.266e+03,2.141e+05
52.7,2.121e+05,1.757e+02,1.300e+03,2.136e+05
54.2,2.239e+05,1.286e+02,1.074e+03,2.251e+05
55.8,2.509e+05,9.197e+01,9.092e+02,2.519e+05
57.3,2.830e+05,9.752e+01,1.603e+03,2.847e+05
58.9,3.073e+05,1.982e+02,2.247e+03,3.098e+05
60.4,3.257e+05,4.522e+02,1.899e+03,3.281e+05
62.0,3.416e+05,6.338e+02,2.053e+03,3.443e+05
63.5,3.514e+05,5.299e+02,2.890e+03,3.548e+05
65.1,3.551e+05,2.768e+02,2.885e+03,3.582e+05
66.6,3.501e+05,1.182e+02,2.563e+03,3.527e+05
68.2,3.559e+05,4.996e+01,2.764e+03,3.587e+05
69.7,3.561e+05,5.235e+01,2.817e+03,3.590e+05
71.3,3.202e+05,9.712e+01,2.615e+03,3.229e+05
72.8,2.563e+05,1.336e+02,2.625e+03,2.591e+05
74.4,2.297e+05,1.133e+02,2.538e+03,2.324e+05
75.9,2.288e+05,1.049e+02,2.168e+03,2.311e+05
77.5,2.344e+05,1.602e+02,1.958e+03,2.366e+05
79.0,2.496e+05,3.342e+02,1.512e+03,2.514e+05
80.6,2.563e+05,6.225e+02,9.986e+02,2.579e+05
82.1,2.429e+05,8.399e+02,8.634e+02,2.446e+05
83.7,2.203e+05,1.100e+03,9.803e+02,2.224e+05
85.2,1.987e+05,1.794e+03,1.465e+03,2.019e+05
86.8,1.806e+05,3.368e+03,2.620e+03,1.866e+05
88.3,1.668e+05,3.613e+03,3.088e+03,1.735e+05
89.9,1.569e+05,2.820e+03,3.134e+03,1.629e+05
91.4,1.504e+05,3.526e+03,3.885e+03,1.578e+05
93.0,1.433e+05,5.476e+03,5.497e+03,1.542e+05
94.5,1.352e+05,7.564e+03,6.939e+03,1.498e+05
96.1,1.324e+05,8.694e+03,7.542e+03,1.486e+05
97.6,1.353e+05,9.278e+03,8.056e+03,1.526e+05
99.2,1.358e+05,9.377e+03,8.217e+03,1.534e+05
100.7,1.337e+05,8.932e+03,7.678e+03,1.503e+05
102.3,1.301e+05,8.074e+03,7.048e+03,1.452e+05
103.8,1.271e+05,6.879e+03,6.414e+03,1.404e+05
105.4,1.203e+05,7.239e+03,6.575e+03,1.341e+05
106.9,1.124e+05,7.939e+03,6.770e+03,1.271e+05
108.5,1.053e+05,7.196e+03,6.551e+03,1.191e+05
110.0,1.010e+05,5.713e+03,6.223e+03,1.129e+05
111.6,9.163e+04,5.481e+03,5.980e+03,1.031e+05
113.1,8.239e+04,7.803e+03,6.420e+03,9.661e+04
114.7,8.071e+04,7.453e+03,5.267e+03,9.343e+04
116.2,7.410e+04,5.271e+03,3.598e+03,8.297e+04
117.8,5.805e+04,3.498e+03,2.585e+03,6.413e+04
119.3,4.237e+04,2.762e+03,2.047e+03,4.718e+04
120.9,3.101e+04,1.870e+03,1.466e+03,3.435e+04
122.4,2.410e+04,1.174e+03,9.816e+02,2.625e+04
124.0,2.219e+04,7.578e+02,6.737e+02,2.362e+04
125.5,2.203e+04,5.383e+02,5.180e+02,2.309e+04
127.1,2.279e+04,5.164e+02,4.296e+02,2.373e+04
128.6,2.417e+04,5.952e+02,4.472e+02,2.521e+04
130.2,2.598e+04,6.825e+02,5.480e+02,2.721e+04
131.7,2.559e+04,8.012e+02,7.128e+02,2.710e+04
133.3,1.174e+04,7.809e+02,6.458e+02,1.317e+04
134.8,4.125e+03,7.476e+02,6.046e+02,5.477e+03
136.4,4.507e+03,7.984e+02,7.075e+02,6.013e+03
137.9,6.300e+03,9.916e+02,8.356e+02,8.128e+03
139.5,8.606e+03,1.245e+03,9.704e+02,1.082e+04
141.0,1.087e+04,1.401e+03,1.093e+03,1.336e+04
142.6,1.355e+04,1.401e+03,1.121e+03,1.607e+04
144.1,1.348e+04,1.328e+03,9.493e+02,1.576e+04
145.7,1.228e+04,9.113e+02,7.549e+02,1.395e+04
147.2,1.349e+04,7.053e+02,7.263e+02,1.492e+04
148.8,1.458e+04,6.774e+02,6.845e+02,1.594e+04
150.3,1.553e+04,6.818e+02,6.644e+02,1.688e+04
151.9,1.659e+04,6.571e+02,7.069e+02,1.796e+04
153.4,1.743e+04,6.716e+02,7.342e+02,1.884e+04
155.0,1.859e+04,7.008e+02,7.395e+02,2.003e+04
156.5,2.229e+04,7.432e+02,8.358e+02,2.387e+04
158.1,3.013e+04,8.706e+02,1.059e+03,3.206e+04
159.6,4.183e+04,1.071e+03,1.392e+03,4.430e+04
161.1,4.999e+04,1.236e+03,1.643e+03,5.287e+04
162.7,5.166e+04,1.304e+03,1.667e+03,5.463e+04
164.2,5.258e+04,1.389e+03,1.681e+03,5.565e+04
165.8,5.361e+04,1.372e+03,1.651e+03,5.663e+04
167.3,5.422e+04,1.235e+03,1.560e+03,5.702e+04
168.9,5.517e+04,1.182e+03,1.463e+03,5.782e+04
170.4,5.511e+04,1.126e+03,1.387e+03,5.763e+04
172.0,5.431e+04,1.096e+03,1.298e+03,5.670e+04
173.5,5.321e+04,1.116e+03,1.261e+03,5.559e+04
175.1,5.225e+04,1.138e+03,1.278e+03,5.466e+04
176.6,5.161e+04,1.180e+03,1.315e+03,5.410e+04
178.2,5.270e+04,1.267e+03,1.332e+03,5.529e+04
179.7,5.376e+04,1.310e+03,1.312e+03,5.638e+04
181.3,5.421e+04,1.486e+03,1.340e+03,5.704e+04
182.8,5.447e+04,1.761e+03,1.422e+03,5.765e+04
184.4,5.346e+04,2.028e+03,1.475e+03,5.696e+04
185.9,5.212e+04,2.287e+03,1.594e+03,5.601e+04
187.5,4.842e+04,2.558e+03,1.537e+03,5.252e+04
189.0,4.386e+04,2.837e+03,1.508e+03,4.820e+04
190.6,3.887e+04,2.989e+03,1.460e+03,4.332e+04
192.1,3.482e+04,3.279e+03,1.544e+03,3.964e+04
193.7,3.061e+04,3.148e+03,1.348e+03,3.511e+04
195.2,2.642e+04,2.940e+03,1.144e+03,3.050e+04
196.8,2.185e+04,2.939e+03,1.033e+03,2.583e+04
198.3,1.787e+04,2.939e+03,9.685e+02,2.177e+04
199.9,1.423e+04,2.694e+03,8.249e+02,1.775e+04
